Frame,X Position(cm),Y Position(cm)
0,89.25839304059635,29.041551667515968
1,88.87824656256996,28.81346378070014
2,88.11795360651718,28.281258711463188
3,86.82545558122744,27.29287786859458
4,84.62060600867439,25.31611618285735
5,82.1876685493055,23.87155956635707
6,78.99443813388382,22.046856471830395
7,75.64914912725159,20.298182672909007
8,71.39150857335602,19.005684647619276
9,66.9818094282499,18.245391691566496
10,62.03990521390683,17.257010848697888
11,57.09800099956376,17.409069439908436
12,52.840360445668196,18.321420987171777
13,48.35463200495679,19.537889716856228
14,44.62919652029817,20.602299855330116
15,41.207878218060664,22.198915063040957
16,38.3187649850601,23.719500975146516
17,36.41803259492815,25.24008688725207
18,34.821417387217316,26.38052632133124
19,33.8330365443487,26.91273139056819
20,33.45289006632231,27.29287786859458
21,33.528919361927585,27.064789981778745
22,34.13715372676981,26.5325849125418
23,35.35362245645426,25.69626266088374
24,37.102296255375656,24.327735339988735
25,39.383175123533995,23.03523731469901
26,42.27228835653455,21.362592811382896
27,45.69360665877206,19.918036194882617
28,49.49507143903596,18.777596760803448
29,53.82874128853681,17.637157326724278
30,58.23844043364293,16.8768643706715
31,62.4960809875385,16.800835075066217
32,67.28592661067101,17.561128031118997
33,71.4675378689613,18.549508873987612
34,75.42106124043575,19.689948308066782
35,78.46223306464687,21.21053422017234
36,81.35134629764744,22.503032245462066
37,83.40413727898994,23.947588861962345
38,85.07678178230606,25.24008688725207
39,86.06516262517466,26.00037984330485
40,86.6733969900169,26.38052632133124
41,86.59736769441162,26.304497025725965
42,86.06516262517466,26.00037984330485
43,85.15281107791134,25.31611618285735
44,83.48016657459522,24.023618157567626
45,81.42737559325272,22.65509083667262
46,78.46223306464687,21.286563515777615
47,75.64914912725159,19.99406549048789
48,71.99974293819824,18.85362605640872
49,68.19827815793434,18.321420987171777
50,63.63652042161767,17.33304014430317
51,59.53093845893265,17.180981553092607
52,55.27329790503709,17.789215917934825
53,51.54786242037847,18.777596760803448
54,47.89845623132513,19.689948308066782
55,44.705225815903454,20.830387742145952
56,42.044200469718724,22.27494435864623
57,39.91538019277094,23.49141308833068
58,38.470823576270654,24.327735339988735
59,37.330384142191484,25.164057591646795
60,36.722149777349266,25.69626266088374
61,36.950237664165094,25.62023336527846
62,37.482442733402046,25.164057591646795
63,38.470823576270654,24.403764635594015
64,40.067438783981494,23.719500975146516
65,42.19625906092928,22.35097365425151
66,44.705225815903454,21.286563515777615
67,47.74639764011457,19.842006899277337
68,51.54786242037847,18.701567465198167
69,55.27329790503709,17.71318662232956
70,59.226821276511544,17.104952257487327
71,63.56049112601239,17.028922961882046
72,67.59004379309212,17.71318662232956
73,71.69562575577713,18.47347957838233
74,75.57311983164631,19.6139190124615
75,78.46223306464687,20.526270559724836
76,80.89517052401577,21.818768585014567
77,83.32810798338467,23.11126661030429
78,84.46854741746384,24.023618157567626
79,85.76104544275356,24.783911113620405
80,86.29325051199051,25.088028296041514
81,86.14119192077995,25.01199900043624
82,85.76104544275356,24.63185252240985
83,84.9247231910955,24.17567674877818
84,83.40413727898994,23.11126661030429
85,81.50340488885799,21.97082717622512
86,79.0704674294891,20.906417037751226
87,76.40944208330437,19.842006899277337
88,72.91209448546158,19.005684647619276
89,69.33871759201351,18.169362395961222
90,65.38519422053906,17.71318662232956
91,61.73578803148572,17.71318662232956
92,58.0103525468271,18.017303804750668
93,54.284917062168475,18.929655352014002
94,50.863598759930966,19.689948308066782
95,48.05051482253568,20.830387742145952
96,45.61757736316679,21.438622106988177
97,44.02096215545595,22.883178723488456
98,42.424346947745114,23.567442383935955
99,41.35993680927122,24.25170604438346
100,40.903761035639555,24.783911113620405
101,40.903761035639555,24.783911113620405
102,41.4359661048765,24.0996474531729
103,42.424346947745114,23.567442383935955
104,43.79287426864011,22.579061541067347
105,45.69360665877206,21.59068069819873
106,48.20257341374624,20.526270559724836
107,51.243745237957356,19.6139190124615
108,54.360946357773756,18.701567465198167
109,57.93432325122182,17.789215917934825
110,61.583729440275164,17.33304014430317
111,65.15710633372322,17.180981553092607
112,69.11062970519768,17.789215917934825
113,72.60797730304047,18.549508873987612
114,75.87723701406742,19.6139190124615
115,78.69032095146271,20.298182672909007
116,80.89517052401577,21.286563515777615
117,83.25207868777939,22.503032245462066
118,84.31648882625328,23.187295905909565
119,85.60898685154301,23.87155956635707
120,85.91310403396412,24.17567674877818
121,85.91310403396412,24.0996474531729
122,85.22884037351662,23.719500975146516
123,84.39251812185856,23.339354497120127
124,83.10002009656883,22.503032245462066
125,80.81914122841049,21.362592811382896
126,78.53826236025215,20.37421196851428
127,76.10532490088326,19.689948308066782
128,72.76003589425102,18.929655352014002
129,69.56680547882935,18.09333310035595
130,65.76534069856545,17.637157326724278
131,62.344022396327944,17.637157326724278
132,58.77064550287987,17.789215917934825
133,55.5774150874582,18.701567465198167
134,52.30815537643125,19.689948308066782
135,49.95124721266763,20.222153377303727
136,47.59433904890401,21.058475628961787
137,45.76963595437734,21.742739289409286
138,44.40110863348234,22.503032245462066
139,43.41272779061372,22.959208019093737
140,43.184639903797894,23.187295905909565
141,43.33669849500845,23.03523731469901
142,43.86890356424539,22.65509083667262
143,45.16140158953512,21.742739289409286
144,46.37787031921957,21.438622106988177
145,48.27860270935152,20.526270559724836
146,50.483452281904576,19.918036194882617
147,53.144477628089305,19.385831125645666
148,56.261678747905705,18.549508873987612
149,59.75902634574849,17.71318662232956
150,63.40843253480183,17.257010848697888
151,66.75372154143406,17.180981553092607
152,70.17503984367157,18.09333310035595
153,73.14018237227741,18.701567465198167
154,76.18135419648853,19.385831125645666
155,78.69032095146271,20.450241264119562
156,80.59105334159466,21.286563515777615
157,82.26369784491077,21.97082717622512
158,83.5561958702005,22.579061541067347
159,84.240459530648,23.11126661030429
160,84.84869389549023,23.4153837927254
161,84.62060600867439,23.263325201514846
162,84.01237164383217,22.883178723488456
163,83.02399080096355,22.35097365425151
164,81.27531700204216,21.59068069819873
165,79.52664320312077,20.75435844654067
166,77.39782292617298,19.842006899277337
167,74.81282687559353,19.309801830040392
168,71.84768434698769,18.777596760803448
169,68.50239534035546,18.169362395961222
170,65.15710633372322,17.637157326724278
171,61.88784662269627,17.71318662232956
172,58.61858691166932,17.941274509145387
173,55.65344438306348,19.005684647619276
174,52.840360445668196,19.689948308066782
175,50.25536439508874,20.070094786093172
176,48.65874918737791,20.602299855330116
177,46.91007538845651,21.438622106988177
178,45.76963595437734,22.35097365425151
179,45.085372293929844,22.427002949856785
180,45.00934299832456,22.579061541067347
181,45.31346018074567,22.198915063040957
182,46.07375313679845,21.818768585014567
183,46.91007538845651,21.362592811382896
184,48.65874918737791,20.75435844654067
185,50.17933509948347,19.99406549048789
186,52.61227255885236,19.385831125645666
187,55.425356496247645,18.549508873987612
188,58.39049902485348,18.017303804750668
189,61.583729440275164,17.637157326724278
190,64.85298915130211,17.33304014430317
191,68.04621956672379,17.789215917934825
192,71.31547927775074,18.245391691566496
193,74.35665110196186,19.005684647619276
194,76.94164715254131,19.689948308066782
195,78.91840883827854,20.298182672909007
196,80.51502404598938,20.830387742145952
197,82.11163925370022,21.59068069819873
198,83.10002009656883,22.122885767435676
199,83.5561958702005,22.503032245462066
200,83.8603130526216,22.503032245462066
201,83.5561958702005,22.427002949856785
202,82.64384432293716,22.046856471830395
